Typical Measured Spectrum of Semrock FF01-492/SP Optical Filter	
For wavelengths between 320 and 1120 nm, values near or below 1e-6 (Optical Density 6) are measurement noise limited.
For wavelengths < 320 nm and > 1120 nm, values near or below 3e-6 (Optical Density 5.5) are measurement noise limited. 
Data format:  Wavelength (nm) <tab> Transmission (0 to 1)
270.0	9.9708e-06
270.2	8.568e-06
270.4	7.3626e-06
270.6	6.3268e-06
270.8	5.4367e-06
271.0	4.6718e-06
271.2	4.0145e-06
271.4	3.4497e-06
271.6	2.9644e-06
271.8	2.5473e-06
272.0	2.9351e-06
272.2	3.4128e-06
272.4	3.9682e-06
272.6	4.614e-06
272.8	5.3649e-06
273.0	6.238e-06
273.2	7.2532e-06
273.4	8.4336e-06
273.6	9.8062e-06
273.8	1.1402e-05
274.0	1.027e-05
274.2	8.6069e-06
274.4	7.2134e-06
274.6	6.0455e-06
274.8	5.0667e-06
275.0	4.2463e-06
275.2	3.5588e-06
275.4	2.9826e-06
275.6	2.4997e-06
275.8	2.095e-06
276.0	1.9379e-06
276.2	1.9172e-06
276.4	1.8967e-06
276.6	1.8764e-06
276.8	1.8563e-06
277.0	1.8364e-06
277.2	1.8168e-06
277.4	1.7973e-06
277.6	1.7781e-06
277.8	1.759e-06
278.0	1.7363e-06
278.2	1.7083e-06
278.4	1.6807e-06
278.6	1.6536e-06
278.8	1.6269e-06
279.0	1.6006e-06
279.2	1.5748e-06
279.4	1.5494e-06
279.6	1.5244e-06
279.8	1.4998e-06
280.0	8.0524e-06
280.2	6.5909e-06
280.4	5.3947e-06
280.6	4.4156e-06
280.8	3.6142e-06
281.0	2.9582e-06
281.2	2.4213e-06
281.4	1.9819e-06
281.6	1.6222e-06
281.8	1.3277e-06
282.0	1.2838e-06
282.2	1.2595e-06
282.4	1.2356e-06
282.6	1.2121e-06
282.8	1.1892e-06
283.0	1.1666e-06
283.2	1.1445e-06
283.4	1.1228e-06
283.6	1.1015e-06
283.8	1.0806e-06
284.0	1.3241e-06
284.2	1.7578e-06
284.4	2.3337e-06
284.6	3.0983e-06
284.8	4.1133e-06
285.0	5.4609e-06
285.2	7.2499e-06
285.4	9.6251e-06
285.6	1.2778e-05
285.8	1.6965e-05
286.0	1.8162e-05
286.2	1.6362e-05
286.4	1.474e-05
286.6	1.3279e-05
286.8	1.1963e-05
287.0	1.0777e-05
287.2	9.7094e-06
287.4	8.7471e-06
287.6	7.8802e-06
287.8	7.0992e-06
288.0	6.089e-06
288.2	4.8121e-06
288.4	3.803e-06
288.6	3.0055e-06
288.8	2.3752e-06
289.0	1.8771e-06
289.2	1.4835e-06
289.4	1.1724e-06
289.6	9.2654e-07
289.8	7.3224e-07
290.0	7.5204e-06
290.2	7.5278e-06
290.4	7.5351e-06
290.6	7.5425e-06
290.8	7.5499e-06
291.0	7.5572e-06
291.2	7.5646e-06
291.4	7.572e-06
291.6	7.5794e-06
291.8	7.5868e-06
292.0	6.9803e-06
292.2	6.3785e-06
292.4	5.8285e-06
292.6	5.326e-06
292.8	4.8668e-06
293.0	4.4472e-06
293.2	4.0638e-06
293.4	3.7134e-06
293.6	3.3933e-06
293.8	3.1007e-06
294.0	3.1876e-06
294.2	3.4117e-06
294.4	3.6515e-06
294.6	3.9083e-06
294.8	4.183e-06
295.0	4.4771e-06
295.2	4.7919e-06
295.4	5.1288e-06
295.6	5.4894e-06
295.8	5.8753e-06
296.0	5.1016e-06
296.2	3.7832e-06
296.4	2.8055e-06
296.6	2.0805e-06
296.8	1.5429e-06
297.0	1.1441e-06
297.2	8.4847e-07
297.4	6.292e-07
297.6	4.666e-07
297.8	3.4602e-07
298.0	3.2214e-07
298.2	4.2492e-07
298.4	5.6048e-07
298.6	7.393e-07
298.8	9.7517e-07
299.0	1.2863e-06
299.2	1.6967e-06
299.4	2.238e-06
299.6	2.952e-06
299.8	3.8938e-06
300.0	2.3692e-06
300.2	2.1347e-06
300.4	1.9233e-06
300.6	1.7329e-06
300.8	1.5613e-06
301.0	1.4067e-06
301.2	1.2674e-06
301.4	1.1419e-06
301.6	1.0289e-06
301.8	9.27e-07
302.0	7.9997e-07
302.2	6.8777e-07
302.4	5.913e-07
302.6	5.0836e-07
302.8	4.3706e-07
303.0	3.7575e-07
303.2	3.2305e-07
303.4	2.7774e-07
303.6	2.3878e-07
303.8	2.0529e-07
304.0	2.3997e-07
304.2	3.1162e-07
304.4	4.0467e-07
304.6	5.2549e-07
304.8	6.824e-07
305.0	8.8614e-07
305.2	1.1507e-06
305.4	1.4943e-06
305.6	1.9405e-06
305.8	2.5199e-06
306.0	2.7625e-06
306.2	2.6652e-06
306.4	2.5714e-06
306.6	2.4809e-06
306.8	2.3936e-06
307.0	2.3094e-06
307.2	2.2281e-06
307.4	2.1496e-06
307.6	2.074e-06
307.8	2.001e-06
308.0	2.2683e-06
308.2	3.2583e-06
308.4	4.6806e-06
308.6	6.7237e-06
308.8	9.6585e-06
309.0	1.3874e-05
309.2	1.9931e-05
309.4	2.863e-05
309.6	4.1127e-05
309.8	5.9079e-05
310.0	4.3841e-05
310.2	4.572e-05
310.4	4.768e-05
310.6	4.9723e-05
310.8	5.1854e-05
311.0	5.2675e-05
311.2	5.1169e-05
311.4	4.9706e-05
311.6	4.8284e-05
311.8	4.6903e-05
312.0	4.5562e-05
312.2	4.4259e-05
312.4	4.335e-05
312.6	4.4269e-05
312.8	4.5207e-05
313.0	4.6166e-05
313.2	4.7145e-05
313.4	4.8144e-05
313.6	4.9165e-05
313.8	5.0207e-05
314.0	5.75e-05
314.2	6.6167e-05
314.4	7.6141e-05
314.6	8.7618e-05
314.8	1.0083e-04
315.0	1.1602e-04
315.2	1.3351e-04
315.4	1.4794e-04
315.6	1.6197e-04
315.8	1.7734e-04
316.0	1.9417e-04
316.2	2.1259e-04
316.4	2.3276e-04
316.6	2.5485e-04
316.8	3.0849e-04
317.0	4.0407e-04
317.2	5.2926e-04
317.4	6.9324e-04
317.6	9.0802e-04
317.8	0.00119
318.0	0.00156
318.2	0.00209
318.4	0.00294
318.6	0.00413
318.8	0.0058
319.0	0.00815
319.2	0.01145
319.4	0.01608
319.6	0.02187
319.8	0.02522
320.0	0.02909
320.2	0.03232
320.4	0.03505
320.6	0.03801
320.8	0.04048
321.0	0.04268
321.2	0.04501
321.4	0.03816
321.6	0.02919
321.8	0.02233
322.0	0.01736
322.2	0.01358
322.4	0.01062
322.6	0.01042
322.8	0.01099
323.0	0.0116
323.2	0.018
323.4	0.03091
323.6	0.05311
323.8	0.04315
324.0	0.02992
324.2	0.02074
324.4	0.01654
324.6	0.01349
324.8	0.011
325.0	0.00853
325.2	0.00657
325.4	0.00506
325.6	0.00279
325.8	0.0015
326.0	8.1011e-04
326.2	6.7674e-04
326.4	5.7304e-04
326.6	4.8537e-04
326.8	4.3417e-04
327.0	3.8837e-04
327.2	3.4566e-04
327.4	2.7647e-04
327.6	2.2113e-04
327.8	1.8191e-04
328.0	2.0666e-04
328.2	2.3478e-04
328.4	2.7053e-04
328.6	3.4591e-04
328.8	4.423e-04
329.0	5.233e-04
329.2	4.055e-04
329.4	3.1421e-04
329.6	2.6295e-04
329.8	3.0236e-04
330.0	3.4768e-04
330.2	3.1821e-04
330.4	3.062e-04
330.6	3.188e-04
330.8	2.9245e-04
331.0	2.8339e-04
331.2	2.6932e-04
331.4	2.6983e-04
331.6	2.367e-04
331.8	2.5709e-04
332.0	2.594e-04
332.2	2.3094e-04
332.4	2.1526e-04
332.6	2.4767e-04
332.8	2.3645e-04
333.0	2.3719e-04
333.2	2.4852e-04
333.4	2.4116e-04
333.6	2.5512e-04
333.8	2.8457e-04
334.0	2.5542e-04
334.2	2.6616e-04
334.4	3.0798e-04
334.6	3.2897e-04
334.8	4.4052e-04
335.0	5.2801e-04
335.2	5.6041e-04
335.4	5.5523e-04
335.6	5.5038e-04
335.8	5.9897e-04
336.0	6.5295e-04
336.2	7.1378e-04
336.4	8.4092e-04
336.6	0.00117
336.8	0.00257
337.0	0.00985
337.2	0.02865
337.4	0.02801
337.6	0.01697
337.8	0.01304
338.0	0.0126
338.2	0.01345
338.4	0.01452
338.6	0.01543
338.8	0.01634
339.0	0.0183
339.2	0.02338
339.4	0.03458
339.6	0.06388
339.8	0.15362
340.0	0.33669
340.2	0.31685
340.4	0.14851
340.6	0.07114
340.8	0.04271
341.0	0.03042
341.2	0.0242
341.4	0.02022
341.6	0.01749
341.8	0.01483
342.0	0.01222
342.2	0.0096
342.4	0.00762
342.6	0.00585
342.8	0.00478
343.0	0.00403
343.2	0.00357
343.4	0.00338
343.6	0.00325
343.8	0.00331
344.0	0.00326
344.2	0.00318
344.4	0.0031
344.6	0.00295
344.8	0.0027
345.0	0.00242
345.2	0.00208
345.4	0.00176
345.6	0.00139
345.8	0.00112
346.0	9.1344e-04
346.2	7.5392e-04
346.4	6.6652e-04
346.6	5.9985e-04
346.8	5.9849e-04
347.0	5.751e-04
347.2	6.2546e-04
347.4	6.9343e-04
347.6	8.3033e-04
347.8	0.00103
348.0	0.0013
348.2	0.00171
348.4	0.00226
348.6	0.00279
348.8	0.00341
349.0	0.00401
349.2	0.00436
349.4	0.0043
349.6	0.00391
349.8	0.00325
350.0	0.00215
350.2	0.00202
350.4	0.0019
350.6	0.00179
350.8	0.00169
351.0	0.00159
351.2	0.0015
351.4	0.00141
351.6	0.00133
351.8	0.00125
352.0	9.9335e-04
352.2	7.7443e-04
352.4	6.0376e-04
352.6	4.707e-04
352.8	3.6696e-04
353.0	2.8609e-04
353.2	2.2304e-04
353.4	1.7389e-04
353.6	1.3556e-04
353.8	1.0569e-04
354.0	9.1934e-05
354.2	8.2945e-05
354.4	7.4835e-05
354.6	6.7517e-05
354.8	6.0916e-05
355.0	5.4959e-05
355.2	4.9585e-05
355.4	4.4737e-05
355.6	4.0363e-05
355.8	3.6416e-05
356.0	3.2377e-05
356.2	2.8517e-05
356.4	2.5117e-05
356.6	2.2122e-05
356.8	1.9485e-05
357.0	1.7162e-05
357.2	1.5116e-05
357.4	1.3314e-05
357.6	1.1727e-05
357.8	1.0328e-05
358.0	9.2472e-06
358.2	8.4364e-06
358.4	7.6968e-06
358.6	7.0219e-06
358.8	6.4063e-06
359.0	5.8446e-06
359.2	5.3322e-06
359.4	4.8647e-06
359.6	4.4382e-06
359.8	4.0491e-06
360.0	2.8021e-05
360.2	2.8047e-05
360.4	2.8072e-05
360.6	2.8098e-05
360.8	2.8124e-05
361.0	2.815e-05
361.2	2.8175e-05
361.4	2.8201e-05
361.6	2.8227e-05
361.8	2.8253e-05
362.0	2.8427e-05
362.2	2.8621e-05
362.4	2.8817e-05
362.6	2.9013e-05
362.8	2.9211e-05
363.0	2.941e-05
363.2	2.9611e-05
363.4	2.9813e-05
363.6	3.0016e-05
363.8	3.0221e-05
364.0	3.0845e-05
364.2	3.1626e-05
364.4	3.2427e-05
364.6	3.3248e-05
364.8	3.4089e-05
365.0	3.4952e-05
365.2	3.5837e-05
365.4	3.6745e-05
365.6	3.7675e-05
365.8	3.8629e-05
366.0	4.1122e-05
366.2	4.4838e-05
366.4	4.8891e-05
366.6	5.331e-05
366.8	5.8129e-05
367.0	6.3383e-05
367.2	6.9112e-05
367.4	7.5359e-05
367.6	8.217e-05
367.8	8.9597e-05
368.0	1.0356e-04
368.2	1.2767e-04
368.4	1.5739e-04
368.6	1.9402e-04
368.8	2.3919e-04
369.0	2.9486e-04
369.2	3.635e-04
369.4	4.4811e-04
369.6	5.5242e-04
369.8	6.8102e-04
370.0	7.1652e-04
370.2	0.00117
370.4	0.0017
370.6	0.00155
370.8	0.00117
371.0	9.1258e-04
371.2	7.0407e-04
371.4	6.1638e-04
371.6	5.6079e-04
371.8	5.3142e-04
372.0	5.016e-04
372.2	4.9487e-04
372.4	5.3081e-04
372.6	5.5557e-04
372.8	6.0223e-04
373.0	6.3286e-04
373.2	6.764e-04
373.4	7.333e-04
373.6	7.7998e-04
373.8	8.9748e-04
374.0	0.00101
374.2	0.00124
374.4	0.00153
374.6	0.00188
374.8	0.00255
375.0	0.00365
375.2	0.00553
375.4	0.00916
375.6	0.01677
375.8	0.03449
376.0	0.06707
376.2	0.08863
376.4	0.07292
376.6	0.04836
376.8	0.03262
377.0	0.02438
377.2	0.01947
377.4	0.01622
377.6	0.01373
377.8	0.01192
378.0	0.01048
378.2	0.00953
378.4	0.00875
378.6	0.0082
378.8	0.00797
379.0	0.00789
379.2	0.00792
379.4	0.00821
379.6	0.00873
379.8	0.00932
380.0	0.00915
380.2	0.00886
380.4	0.00993
380.6	0.0114
380.8	0.01364
381.0	0.01673
381.2	0.02143
381.4	0.02808
381.6	0.03814
381.8	0.05325
382.0	0.07841
382.2	0.11863
382.4	0.18819
382.6	0.30222
382.8	0.47412
383.0	0.65588
383.2	0.7431
383.4	0.68985
383.6	0.57004
383.8	0.45922
384.0	0.37667
384.2	0.31807
384.4	0.27858
384.6	0.25229
384.8	0.23586
385.0	0.22782
385.2	0.22785
385.4	0.23393
385.6	0.24752
385.8	0.26915
386.0	0.29956
386.2	0.3408
386.4	0.39394
386.6	0.46006
386.8	0.53597
387.0	0.61938
387.2	0.70299
387.4	0.77667
387.6	0.83628
387.8	0.87854
388.0	0.9001
388.2	0.91566
388.4	0.9223
388.6	0.92605
388.8	0.93249
389.0	0.93654
389.2	0.94324
389.4	0.9491
389.6	0.95387
389.8	0.95895
390.0	0.9592
390.2	0.95914
390.4	0.95908
390.6	0.95902
390.8	0.95897
391.0	0.95891
391.2	0.95885
391.4	0.95879
391.6	0.96029
391.8	0.96342
392.0	0.96533
392.2	0.96791
392.4	0.96827
392.6	0.96913
392.8	0.96923
393.0	0.96734
393.2	0.96563
393.4	0.96556
393.6	0.96484
393.8	0.96392
394.0	0.96428
394.2	0.96496
394.4	0.9673
394.6	0.9673
394.8	0.96881
395.0	0.97132
395.2	0.972
395.4	0.97258
395.6	0.97349
395.8	0.97215
396.0	0.97114
396.2	0.96956
396.4	0.96791
396.6	0.96432
396.8	0.96409
397.0	0.96217
397.2	0.96075
397.4	0.95834
397.6	0.95749
397.8	0.95698
398.0	0.95734
398.2	0.96004
398.4	0.96021
398.6	0.9628
398.8	0.96407
399.0	0.96489
399.2	0.96655
399.4	0.96762
399.6	0.9675
399.8	0.96814
400.0	0.96774
400.2	0.96774
400.4	0.96708
400.6	0.9662
400.8	0.9664
401.0	0.96462
401.2	0.96601
401.4	0.96676
401.6	0.96999
401.8	0.96965
402.0	0.97191
402.2	0.97478
402.4	0.9745
402.6	0.97762
402.8	0.97801
403.0	0.97836
403.2	0.97902
403.4	0.97789
403.6	0.97628
403.8	0.97352
404.0	0.97173
404.2	0.96869
404.4	0.96819
404.6	0.96779
404.8	0.96636
405.0	0.96711
405.2	0.96676
405.4	0.96782
405.6	0.97005
405.8	0.97222
406.0	0.97405
406.2	0.97504
406.4	0.9762
406.6	0.97764
406.8	0.97978
407.0	0.97973
407.2	0.98091
407.4	0.98003
407.6	0.97947
407.8	0.97835
408.0	0.97635
408.2	0.97428
408.4	0.97086
408.6	0.97099
408.8	0.97001
409.0	0.96834
409.2	0.96766
409.4	0.96983
409.6	0.96967
409.8	0.97082
410.0	0.97194
410.2	0.97457
410.4	0.97619
410.6	0.97796
410.8	0.98019
411.0	0.982
411.2	0.98325
411.4	0.98414
411.6	0.98294
411.8	0.98217
412.0	0.98088
412.2	0.97923
412.4	0.97736
412.6	0.97611
412.8	0.97466
413.0	0.97476
413.2	0.97438
413.4	0.97348
413.6	0.97398
413.8	0.97474
414.0	0.97675
414.2	0.97698
414.4	0.97804
414.6	0.97967
414.8	0.98122
415.0	0.9811
415.2	0.98275
415.4	0.98227
415.6	0.98317
415.8	0.98168
416.0	0.98092
416.2	0.98186
416.4	0.97935
416.6	0.98044
416.8	0.98007
417.0	0.97887
417.2	0.97963
417.4	0.97973
417.6	0.97861
417.8	0.97947
418.0	0.98026
418.2	0.98039
418.4	0.98106
418.6	0.98233
418.8	0.98198
419.0	0.98204
419.2	0.98213
419.4	0.98266
419.6	0.98268
419.8	0.98306
420.0	0.98265
420.2	0.98182
420.4	0.98241
420.6	0.98213
420.8	0.98167
421.0	0.98218
421.2	0.98107
421.4	0.98271
421.6	0.98278
421.8	0.98391
422.0	0.98141
422.2	0.98355
422.4	0.98473
422.6	0.98456
422.8	0.98472
423.0	0.98604
423.2	0.98451
423.4	0.98565
423.6	0.98432
423.8	0.98263
424.0	0.98231
424.2	0.98066
424.4	0.97839
424.6	0.97695
424.8	0.97501
425.0	0.97436
425.2	0.97338
425.4	0.97414
425.6	0.97557
425.8	0.97571
426.0	0.97733
426.2	0.97997
426.4	0.98128
426.6	0.98383
426.8	0.98524
427.0	0.98698
427.2	0.98794
427.4	0.98812
427.6	0.98751
427.8	0.98609
428.0	0.98481
428.2	0.98243
428.4	0.98119
428.6	0.97715
428.8	0.97571
429.0	0.97379
429.2	0.97247
429.4	0.97227
429.6	0.97273
429.8	0.97232
430.0	0.975
430.2	0.9769
430.4	0.97894
430.6	0.98129
430.8	0.98384
431.0	0.98568
431.2	0.98644
431.4	0.9875
431.6	0.98719
431.8	0.98762
432.0	0.98618
432.2	0.98621
432.4	0.9849
432.6	0.98314
432.8	0.98202
433.0	0.98174
433.2	0.98135
433.4	0.98075
433.6	0.98107
433.8	0.98177
434.0	0.98381
434.2	0.98449
434.4	0.98572
434.6	0.98666
434.8	0.98614
435.0	0.98636
435.2	0.98462
435.4	0.98288
435.6	0.98115
435.8	0.97942
436.0	0.97769
436.2	0.97597
436.4	0.97425
436.6	0.97296
436.8	0.97192
437.0	0.97157
437.2	0.97263
437.4	0.97424
437.6	0.97572
437.8	0.978
438.0	0.98034
438.2	0.9837
438.4	0.98525
438.6	0.98685
438.8	0.9889
439.0	0.98877
439.2	0.98944
439.4	0.98881
439.6	0.9876
439.8	0.98576
440.0	0.98487
440.2	0.98265
440.4	0.98089
440.6	0.98006
440.8	0.97889
441.0	0.97805
441.2	0.97887
441.4	0.97911
441.6	0.98047
441.8	0.9824
442.0	0.98325
442.2	0.98471
442.4	0.98569
442.6	0.98712
442.8	0.98755
443.0	0.98726
443.2	0.98685
443.4	0.98613
443.6	0.98617
443.8	0.98463
444.0	0.98365
444.2	0.98381
444.4	0.98281
444.6	0.98258
444.8	0.98245
445.0	0.98349
445.2	0.98376
445.4	0.98539
445.6	0.9868
445.8	0.98733
446.0	0.98955
446.2	0.99037
446.4	0.99093
446.6	0.99121
446.8	0.99068
447.0	0.99014
447.2	0.98988
447.4	0.98866
447.6	0.98824
447.8	0.98745
448.0	0.98626
448.2	0.98619
448.4	0.98602
448.6	0.98585
448.8	0.98542
449.0	0.98595
449.2	0.98767
449.4	0.98791
449.6	0.98866
449.8	0.98973
450.0	0.99
450.2	0.99026
450.4	0.99025
450.6	0.99007
450.8	0.98921
451.0	0.9885
451.2	0.9871
451.4	0.98613
451.6	0.98432
451.8	0.98418
452.0	0.9824
452.2	0.98271
452.4	0.98274
452.6	0.98291
452.8	0.98336
453.0	0.98443
453.2	0.98529
453.4	0.98646
453.6	0.98677
453.8	0.98817
454.0	0.98817
454.2	0.98753
454.4	0.98765
454.6	0.98706
454.8	0.98601
455.0	0.98487
455.2	0.98358
455.4	0.9822
455.6	0.98127
455.8	0.98059
456.0	0.98041
456.2	0.97926
456.4	0.98014
456.6	0.98065
456.8	0.9823
457.0	0.98389
457.2	0.98501
457.4	0.98712
457.6	0.98871
457.8	0.98986
458.0	0.99098
458.2	0.99165
458.4	0.99177
458.6	0.99162
458.8	0.99098
459.0	0.98966
459.2	0.98887
459.4	0.98811
459.6	0.9875
459.8	0.98617
460.0	0.98635
460.2	0.98627
460.4	0.98646
460.6	0.98674
460.8	0.98783
461.0	0.98807
461.2	0.98993
461.4	0.9905
461.6	0.99075
461.8	0.99111
462.0	0.99166
462.2	0.99265
462.4	0.9916
462.6	0.99092
462.8	0.99043
463.0	0.98882
463.2	0.98761
463.4	0.98713
463.6	0.98594
463.8	0.98576
464.0	0.98478
464.2	0.98494
464.4	0.98479
464.6	0.98599
464.8	0.9867
465.0	0.98769
465.2	0.98871
465.4	0.98992
465.6	0.9905
465.8	0.99043
466.0	0.99106
466.2	0.99098
466.4	0.9901
466.6	0.98959
466.8	0.99003
467.0	0.98867
467.2	0.98796
467.4	0.98714
467.6	0.98657
467.8	0.98541
468.0	0.9857
468.2	0.98522
468.4	0.98408
468.6	0.98419
468.8	0.98389
469.0	0.98358
469.2	0.98343
469.4	0.9824
469.6	0.98165
469.8	0.98067
470.0	0.97958
470.2	0.97827
470.4	0.97783
470.6	0.97849
470.8	0.97865
471.0	0.97849
471.2	0.97955
471.4	0.98072
471.6	0.98219
471.8	0.98396
472.0	0.9863
472.2	0.98892
472.4	0.98991
472.6	0.9919
472.8	0.99282
473.0	0.99347
473.2	0.99388
473.4	0.99378
473.6	0.99372
473.8	0.99125
474.0	0.99031
474.2	0.98914
474.4	0.98804
474.6	0.98717
474.8	0.98583
475.0	0.98568
475.2	0.9866
475.4	0.9866
475.6	0.98731
475.8	0.98787
476.0	0.98919
476.2	0.99024
476.4	0.99114
476.6	0.99172
476.8	0.99144
477.0	0.99064
477.2	0.99071
477.4	0.98991
477.6	0.98879
477.8	0.98777
478.0	0.98756
478.2	0.98756
478.4	0.98707
478.6	0.98714
478.8	0.98716
479.0	0.98682
479.2	0.98681
479.4	0.9858
479.6	0.98524
479.8	0.98419
480.0	0.98265
480.2	0.98155
480.4	0.98092
480.6	0.98118
480.8	0.98122
481.0	0.98187
481.2	0.98231
481.4	0.98226
481.6	0.97907
481.8	0.97127
482.0	0.9523
482.2	0.91285
482.4	0.84378
482.6	0.73525
482.8	0.59359
483.0	0.43972
483.2	0.30242
483.4	0.19726
483.6	0.1261
483.8	0.07838
484.0	0.04876
484.2	0.03093
484.4	0.01984
484.6	0.01305
484.8	0.00872
485.0	0.00554
485.2	0.00373
485.4	0.00258
485.6	0.00181
485.8	0.00129
486.0	9.3103e-04
486.2	6.7661e-04
486.4	4.9542e-04
486.6	3.6279e-04
486.8	2.7213e-04
487.0	2.0639e-04
487.2	1.5729e-04
487.4	1.2134e-04
487.6	9.439e-05
487.8	7.4108e-05
488.0	5.7696e-05
488.2	4.5754e-05
488.4	3.6412e-05
488.6	2.9416e-05
488.8	2.3764e-05
489.0	1.9504e-05
489.2	1.6133e-05
489.4	1.3168e-05
489.6	1.0653e-05
489.8	8.6431e-06
490.0	7.2392e-06
490.2	6.0634e-06
490.4	5.2587e-06
490.6	4.6848e-06
490.8	3.9766e-06
491.0	3.2365e-06
491.2	2.6373e-06
491.4	2.2812e-06
491.6	1.9732e-06
491.8	1.7673e-06
492.0	1.6379e-06
492.2	1.4786e-06
492.4	1.288e-06
492.6	1.122e-06
492.8	8.207e-07
493.0	5.9004e-07
493.2	5.1922e-07
493.4	6.2267e-07
493.6	7.0381e-07
493.8	6.9943e-07
494.0	6.9508e-07
494.2	6.433e-07
494.4	5.8488e-07
494.6	5.5371e-07
494.8	5.8013e-07
495.0	5.9465e-07
495.2	5.599e-07
495.4	5.2719e-07
495.6	4.4432e-07
495.8	3.5629e-07
496.0	3.0524e-07
496.2	3.5722e-07
496.4	4.1668e-07
496.6	4.764e-07
496.8	5.4469e-07
497.0	5.7112e-07
497.2	5.6852e-07
497.4	5.6598e-07
497.6	5.6379e-07
497.8	5.6078e-07
498.0	5.3561e-07
498.2	5.1158e-07
498.4	5.1793e-07
498.6	5.5333e-07
498.8	5.9139e-07
499.0	6.8353e-07
499.2	7.9002e-07
499.4	7.8068e-07
499.6	7.6102e-07
499.8	7.8053e-07
500.0	8.626e-07
500.2	9.5331e-07
500.4	1.0501e-06
500.6	1.1563e-06
500.8	1.2905e-06
501.0	1.4449e-06
501.2	1.5913e-06
501.4	1.6846e-06
501.6	1.7834e-06
501.8	1.8039e-06
502.0	1.8013e-06
502.2	1.7479e-06
502.4	1.6791e-06
502.6	1.6321e-06
502.8	1.6522e-06
503.0	1.6725e-06
503.2	1.6727e-06
503.4	1.6647e-06
503.6	1.5525e-06
503.8	1.3925e-06
504.0	1.2713e-06
504.2	1.3396e-06
504.4	1.4116e-06
504.6	1.4159e-06
504.8	1.3733e-06
505.0	1.3737e-06
505.2	1.4162e-06
505.4	1.46e-06
505.6	1.526e-06
505.8	1.5952e-06
506.0	1.6402e-06
506.2	1.6559e-06
506.4	1.6695e-06
506.6	1.6806e-06
506.8	1.6918e-06
507.0	1.7501e-06
507.2	1.8145e-06
507.4	1.8925e-06
507.6	1.9907e-06
507.8	2.0845e-06
508.0	2.1618e-06
508.2	2.242e-06
508.4	2.2221e-06
508.6	2.1791e-06
508.8	2.1253e-06
509.0	2.0462e-06
509.2	1.9873e-06
509.4	1.9944e-06
509.6	2.0014e-06
509.8	1.9621e-06
510.0	1.904e-06
510.2	1.841e-06
510.4	1.7516e-06
510.6	1.6729e-06
510.8	1.599e-06
511.0	1.5662e-06
511.2	1.6691e-06
511.4	1.6889e-06
511.6	1.6982e-06
511.8	1.6626e-06
